Time,Target,Actual,Velocity,Current
0.0045528411865234375,63827.56568422093,63827.05078125,0.0,0.06436287136602914
0.0069179534912109375,63827.83314393803,63827.05078125,0.0,0.09779533600340073
0.009113311767578125,63828.08138241354,63827.05078125,0.0,0.12882514544253354
0.011330604553222656,63828.332069245036,63827.05078125,0.0,0.16016099937951367
0.01370549201965332,63828.60052937354,63827.05078125,0.0,0.1937185154429244
0.016093969345092773,63828.87047001182,63827.05078125,0.0,0.2274610952272269
0.01848149299621582,63829.140237336505,63827.05078125,0.0,0.2611820108131724
0.02085113525390625,63829.407909869136,63827.05078125,0.0,0.29464107739204337
0.02320384979248047,63829.67358757476,63827.05078125,0.0,0.32785079059522104
0.02541518211364746,63829.92321641593,63827.05078125,0.0,0.359054395741623
0.027578115463256836,63830.16729590529,63827.05078125,0.0,0.38956433191106044
0.029740571975708008,63830.411229521626,63827.05078125,0.3,0.41957603395318754
0.03189730644226074,63830.65441880942,63827.05078125,0.51,0.4496386949274299
0.034058332443237305,63830.89798580171,63827.05078125,0.657,0.4798493689639889
0.036200523376464844,63831.13931792666,63827.05078125,0.7599,0.5098512445824643
0.03835320472717285,63831.38171247163,63827.05078125,1.13193,0.5395553147037158
0.040499210357666016,63831.623229147874,63827.05078125,1.3923510000000001,0.5693282256342055
0.04265475273132324,63831.86568520241,63827.05078125,1.5746457,0.5993435609308617
0.04480481147766113,63832.10738368955,63827.05078125,1.7022519899999997,0.62935170176001
0.04694652557373047,63832.347997330224,63827.05078125,2.0915763929999995,0.6588054877991667
0.04908919334411621,63832.588564529964,63827.05078125,2.3641034750999994,0.6884403444353475
0.05120038986206055,63832.825441269,63827.05078125,2.8548724325699997,0.7172647064829247
0.05334782600402832,63833.06621727484,63827.05078125,3.4984107027989997,0.7463320459807241
0.0554804801940918,63833.305162490535,63828.03955078125,4.5488874919593,0.6509232436734542
0.05762791633605957,63833.54558232423,63828.03955078125,6.784221244371509,0.6773991888815123
0.05977916717529297,63833.78623954596,63828.03955078125,10.148954871060056,0.7020977677950149
0.06191277503967285,63834.024728617,63828.03955078125,14.00426840974204,0.7257404000128991
0.0640416145324707,63834.262484835526,63828.03955078125,18.802987886819427,0.7477819761656221
0.06614947319030762,63834.49769446109,63828.03955078125,23.962091520773598,0.7689286135467435
0.06826019287109375,63834.733013914934,63828.03955078125,29.07346406454152,0.7901653492072858
0.07038164138793945,63834.96931165465,63828.03955078125,35.051424845179056,0.8101378294224327
0.0724797248840332,63835.20278550221,63828.03955078125,41.33599739162534,0.8292667442933663
0.07461357116699219,63835.440006484234,63829.0283203125,48.135198174137734,0.7244444543881159
0.07675719261169434,63835.67807122288,63829.0283203125,55.294638721896405,0.742747441842369
0.07901620864868164,63835.92868024419,63829.0283203125,63.606247105327476,0.7607749960930944
0.0813744068145752,63836.18998683731,63829.0283203125,72.42437297372922,0.7793293188429726
0.08352947235107422,63836.42850425205,63829.0283203125,81.29706108161045,0.7949476947131241
0.08568167686462402,63836.666430462334,63830.01708984375,89.9079427571273,0.6873148689115545
0.0878593921661377,63836.906890504986,63830.01708984375,97.4355599299891,0.7053281867665453
0.09003472328186035,63837.14679252916,63830.01708984375,104.20489195099236,0.7244850085544272
0.09220123291015625,63837.385421763895,63831.005859375,111.34342436569466,0.619295819626708
0.09437060356140137,63837.62405910981,63831.005859375,119.04039705598626,0.6368103315617135
0.09655189514160156,63837.8636908772,63831.005859375,127.12827793919037,0.6538236930725849
0.09873056411743164,63838.10271014589,63831.99462890625,134.28979455743325,0.5486464836630358
0.10090088844299316,63838.340484483655,63831.99462890625,141.10285619020328,0.567467377271302
0.10307765007019043,63838.57862666993,63831.99462890625,147.67199933314228,0.58672452152682
0.10520100593566895,63838.810593782684,63832.9833984375,153.7703995331996,0.4823667788948818
0.10736250877380371,63839.04638425416,63832.9833984375,160.1392796732397,0.5016503796050167
0.10951447486877441,63839.280782739224,63832.9833984375,165.7974957712678,0.5218970444815187
0.11167550086975098,63839.51580803687,63833.97216796875,171.25824703988744,0.4189418132513078
0.11389446258544922,63839.756751529654,63833.97216796875,175.9807729279212,0.4415037084283434
0.11609244346618652,63839.99502728015,63834.9609375,181.38654104954483,0.33904275683956325
0.11829519271850586,63840.2334236567,63834.9609375,186.67057873468136,0.36038784361159565
0.12044858932495117,63840.466088259025,63835.94970703125,192.76940511427694,0.25611660528904784
0.12260603904724121,63840.69879672654,63835.94970703125,197.63858357999382,0.2774144781829716
0.12490463256835938,63840.94628768987,63836.9384765625,201.94700850599565,0.17786117731150294
0.12729620933532715,63841.20329783635,63836.9384765625,205.26290595419695,0.20468200970447492
0.12958979606628418,63841.44929731882,63836.9384765625,207.88403416793784,0.231238139870939
0.13185501098632812,63841.691784207236,63837.92724609375,209.7188239175565,0.1350171459176841
0.1341404914855957,63841.93595954108,63837.92724609375,212.20317674228954,0.16156409812843336
0.1364731788635254,63842.184671848176,63838.916015625,214.84222371960266,0.06483446994559072
0.13883566856384277,63842.43603147979,63839.90478515625,216.98955660372184,-0.030777500123623347
0.14115214347839355,63842.681968714525,63839.90478515625,219.0926896226053,-0.0034003586117581364
0.1434495449066162,63842.92535767267,63840.8935546875,220.5648827358237,-0.09892843923111372
0.14560556411743164,63843.15328722141,63840.8935546875,221.59541791507655,-0.07208610192557366
0.14777731895446777,63843.38240230051,63841.88232421875,222.01679254055358,-0.16771710784523103
0.1499333381652832,63843.60937604691,63841.88232421875,222.01175477838748,-0.13933732912561528
0.15209150314331055,63843.83608876799,63842.87109375,222.0082283448712,-0.23458878810326173
0.15426158905029297,63844.063555827546,63842.87109375,221.40575984140983,-0.20519145605297767
0.15641164779663086,63844.28842459046,63843.85986328125,220.08403188898686,-0.29856428737150426
0.15855646133422852,63844.51224328194,63843.85986328125,218.55882232229078,-0.2681466156293209
0.16075682640075684,63844.74133164056,63843.85986328125,216.89117562560355,-0.2368423360874406
0.16291260719299316,63844.965253524,63844.8486328125,214.82382293792247,-0.32914052776292135
0.16506028175354004,63845.187810493975,63844.8486328125,212.17667605654572,-0.29708547150608305
0.16720104217529297,63845.409125105696,63845.83740234375,209.72367323958198,-0.38909253194006266
0.16934919357299805,63845.63066961072,63845.83740234375,206.50657126770736,-0.3562521056570367
0.17153143882751465,63845.85517574258,63846.826171875,203.05459988739514,-0.4462618763721828
0.17368268966674805,63846.07593959379,63846.826171875,198.83821992117657,-0.41192018702475636
0.17583370208740234,63846.296122924614,63846.826171875,194.38675394482357,-0.3772749251099824
0.17798805236816406,63846.5160841564,63847.81494140625,190.07072776137647,-0.46647032064953964
0.18014264106750488,63846.73549898251,63847.81494140625,185.84950943296354,-0.43228951806014637
0.18230366706848145,63846.95498954857,63847.81494140625,180.79465660307446,-0.3967654327750633
0.1844487190246582,63847.17227703401,63848.8037109375,175.7562596221521,-0.4851392533313247
0.1865851879119873,63847.38811378371,63848.8037109375,170.12938173550646,-0.4491566550007064
0.18873310089111328,63847.604515579784,63848.8037109375,164.3905672148545,-0.4129243272582966
0.1908879280090332,63847.82101210511,63849.79248046875,157.97339705039815,-0.4991909807357844
0.19304156303405762,63848.03678018798,63849.79248046875,151.3813779352787,-0.4616727397931276
0.19519615173339844,63848.25202858164,63849.79248046875,144.0669645546951,-0.4230636291759294
0.19744133949279785,63848.475666492595,63850.78125,135.04687518828655,-0.5042729387268413
0.20211076736450195,63848.93858438394,63850.78125,127.23281263180058,-0.43390570221826763
0.20457983016967773,63849.18214805567,63850.78125,120.2629688422604,-0.392308493189089
0.20693278312683105,63849.41346502206,63850.78125,113.58407818958227,-0.352707647346017
0.20930218696594238,63849.64560898232,63850.78125,107.10885473270758,-0.31332929478249927
0.2116527557373047,63849.87511586854,63851.77001953125,100.7761983128953,-0.39810487513927145
0.21397995948791504,63850.101556716836,63851.77001953125,94.5433388190267,-0.35982719391218554
0.21613621711730957,63850.31066059007,63851.77001953125,88.3803371733187,-0.32382840712500527
0.21828627586364746,63850.518483168176,63851.77001953125,82.26623602132308,-0.2880680230183273
0.2204267978668213,63850.72470324406,63851.77001953125,76.18636521492616,-0.2525627202429682
0.22255921363830566,63850.92946109779,63851.77001953125,70.43045565044831,-0.2177585332233936
0.22469854354858398,63851.13419365638,63851.77001953125,64.90131895531381,-0.1833203446876599
0.2268848419189453,63851.34270169783,63851.77001953125,59.830923268719665,-0.14914420640729936
0.22905993461608887,63851.54941325889,63851.77001953125,55.681646288103764,-0.11666641810640495
0.2312004566192627,63851.75212465224,63851.77001953125,52.17715240167263,-0.08572030371925139
0.23334574699401855,63851.95457033523,63851.77001953125,49.12400668117084,-0.05552956019276208
0.23547935485839844,63852.15519551964,63851.77001953125,45.48680467681959,-0.024631888934038407
0.23761796951293945,63852.355567081555,63851.77001953125,40.540763273773706,0.008328222550075717
0.23976778984069824,63852.556251713126,63851.77001953125,34.978534291641594,0.04231336786783288
0.2419126033782959,63852.755726978525,63851.77001953125,28.984974004149116,0.07683747250270676
0.24405550956726074,63852.95427893088,63851.77001953125,22.68948180290438,0.11172925406953389
0.24620485305786133,63853.15267258768,63851.77001953125,16.182637262033065,0.14693941243485964
0.24835491180419922,63853.350370222775,63851.77001953125,8.927846083423145,0.18325928270719571
0.2527022361755371,63853.74775401236,63851.77001953125,2.3494922583962006,0.24345762252509112
0.25504016876220703,63853.960146853235,63851.77001953125,-2.8553554191226596,0.2783344839186736
0.2573556900024414,63854.16958797792,63851.77001953125,-7.0987487933858615,0.311304053903388
0.25963616371154785,63854.37496137013,63851.77001953125,-10.969124155370103,0.3431683285085063
0.2619636058807373,63854.5836390635,63851.77001953125,-13.978386908759072,0.3740678605854299
0.2643275260925293,63854.79462298494,63851.77001953125,-16.08487083613135,0.40381122504910527
0.266681432723999,63855.00374011271,63851.77001953125,-17.859409585291942,0.4327901280192129
0.2690904140472412,63855.21673699367,63850.78125,-18.80158670970436,0.5845184129445751
0.271456241607666,63855.42491348331,63850.78125,-19.46111069679305,0.6115957125283746
0.27380895614624023,63855.63094130277,63850.78125,-19.922777487755134,0.6380878568266863
0.2762293815612793,63855.84185569018,63850.78125,-19.94594424142859,0.6644892220589791
0.2809031009674072,63856.246099043055,63850.78125,-19.662160969000013,0.7145655879323297
0.28324174880981445,63856.446866721955,63850.78125,-19.16351267830001,0.7388637105296929
0.2855958938598633,63856.647939127986,63850.78125,-17.914458874810006,0.7619992751979859
0.2879679203033447,63856.84949088451,63851.77001953125,-15.540121212367003,0.6597981130972345
0.2903404235839844,63857.05002379189,63851.77001953125,-11.478084848656902,0.678365468337794
0.29268789291381836,63857.24739098049,63851.77001953125,-7.434659394059832,0.6965668861855343
0.2950904369354248,63857.44830024466,63851.77001953125,-1.604261575841882,0.7123519076973133
0.2974550724029541,63857.64495728661,63851.77001953125,4.877016896910683,0.7265639923851074
0.299832820892334,63857.841615315265,63851.77001953125,12.113911827837477,0.7395672140773086
0.3022184371948242,63858.03781900855,63851.77001953125,20.479738279486234,0.7507073534149031
0.30684399604797363,63858.41506545457,63851.77001953125,27.535816795640365,0.7865734335415382
0.3092308044433594,63858.60807153295,63852.7587890625,34.27507175694825,0.6763201939953486
0.3115830421447754,63858.797171115046,63852.7587890625,40.492550229863774,0.6900096762004411
0.3139455318450928,63858.985978075296,63852.7587890625,47.24478516090464,0.7028069703420352
0.31633901596069336,63859.176113915426,63852.7587890625,54.97134961263325,0.7142114472355315
0.3186943531036377,63859.362084595195,63852.7587890625,63.07994472884327,0.7244840300207862
0.32106947898864746,63859.54847116843,63853.74755859375,71.15596131019029,0.6112645337390736
0.3234431743621826,63859.73358854208,63853.74755859375,80.4091729171332,0.6195990668742685
0.32813262939453125,63860.09587988139,63853.74755859375,89.28642104199324,0.6506818872875734
0.3305084705352783,63860.27768055694,63854.736328125,97.90049472939526,0.536028262425144
0.3328361511230469,63860.45464709589,63854.736328125,105.73034631057666,0.5456213172641403
0.33515000343322754,63860.62942929213,63854.736328125,113.31124241740366,0.5553396580234323
0.3374149799346924,63860.79941974024,63855.72509765625,120.11786969218255,0.44210166899085435
0.33971095085144043,63860.97062018841,63855.72509765625,125.78250878452778,0.45443830246487754
0.3420562744140625,63861.14433448172,63855.72509765625,130.94775614916944,0.4678881933455151
0.3444020748138428,63861.31689917408,63856.7138671875,136.3634293044186,0.3571975114357064
0.3467535972595215,63861.488689394784,63856.7138671875,141.954400513093,0.3697257350895712
0.3491191864013672,63861.660293574256,63857.70263671875,147.3680803591651,0.2589181783635577
0.3538784980773926,63862.001830101915,63857.70263671875,152.35765625141556,0.2936269228934104
0.35628533363342285,63862.17264799881,63858.69140625,156.75035937599088,0.18435464359922663
0.35868334770202637,63862.34156174631,63858.69140625,159.8252515631936,0.20054903453771739
0.3610880374908447,63862.509658494055,63858.69140625,162.27767609423552,0.21763724875606655
0.36347031593322754,63862.674911519614,63859.68017578125,164.59437326596486,0.11099097007000591
0.36584901809692383,63862.838642294824,63859.68017578125,166.5160612861754,0.12838261613889934
0.36823081970214844,63863.0013048372,63860.6689453125,167.86124290032276,0.022966951946784053
0.37058210372924805,63863.1606196581,63860.6689453125,169.40287003022593,0.04041470115137066
0.3729424476623535,63863.31928004453,63860.6689453125,170.78200902115813,0.05804062707017277
0.37531042098999023,63863.47717075459,63861.65771484375,171.7474063148107,-0.047363861248964634
0.3776519298553467,63863.632028273154,63861.65771484375,172.12318442036747,-0.028607916397088984
0.37998414039611816,63863.7850115231,63862.646484375,171.7862290942572,-0.13254207303860693
0.3822817802429199,63863.93449295435,63862.646484375,170.95036036598003,-0.11251950416665568
0.38453197479248047,63864.079695603206,63862.646484375,169.76525225618602,-0.09247300008410436
0.38671183586120605,63864.21923040624,63863.63525390625,168.3356765793302,-0.1963400200280574
0.3888688087463379,63864.35620203445,63863.63525390625,166.73497360553114,-0.17665744174421844
0.3910248279571533,63864.49201750355,63863.63525390625,164.71448152387177,-0.15644772077552938
0.3931765556335449,63864.62646657093,63864.6240234375,162.40013706671024,-0.2595348276278151
0.3953261375427246,63864.75968430113,63864.6240234375,160.18009594669718,-0.23933054556134287
0.3974599838256836,63864.89083829731,63864.6240234375,157.72606716268803,-0.21900984998410977
0.3995978832244873,63865.021149987384,63865.61279296875,155.1082470138816,-0.32212856789296324
0.40173840522766113,63865.1505232932,63865.61279296875,151.77577290971712,-0.3006249460989036
0.403886079788208,63865.279220706856,63865.61279296875,147.943041036802,-0.2784053983956339
0.40602922439575195,63865.40653640416,63866.6015625,144.0601287257614,-0.3798744679412368
0.408174991607666,63865.53289306773,63866.6015625,139.84209010803295,-0.3573310232068708
0.4103250503540039,63865.65837989508,63866.6015625,135.68946307562305,-0.3350009665358153
0.4124588966369629,63865.78180588743,63866.6015625,131.88262415293613,-0.31348177521560894
0.4146735668182373,63865.90872881668,63867.59033203125,128.01783690705528,-0.41502894087285513
0.4168410301208496,63866.03178069903,63867.59033203125,124.1124858349387,-0.39339889386366733
0.4189925193786621,63866.15278172476,63867.59033203125,119.57874008445708,-0.37101977244607354
0.4211430549621582,63866.27258658692,63867.59033203125,114.90511805911996,-0.34856636943565017
0.423295259475708,63866.39133731357,63867.59033203125,110.13358264138397,-0.3260880719358548
0.4254288673400879,63866.50792580209,63868.5791015625,104.99350784896876,-0.4268865826093051
0.4275689125061035,63866.62372633031,63868.5791015625,98.99545549427813,-0.40281463281435614
0.4297151565551758,63866.7387125235,63868.5791015625,92.6968188459947,-0.378363540028137
0.4318573474884033,63866.85233007037,63868.5791015625,86.18777319219629,-0.3537468736240996
0.4340028762817383,63866.964968245535,63868.5791015625,79.83144123453741,-0.32949697059592337
0.43614768981933594,63867.07640887227,63868.5791015625,73.88200886417619,-0.3060478004612177
0.4382932186126709,63867.18672303685,63868.5791015625,68.21740620492332,-0.28319516563392516
0.4404289722442627,63867.29537554477,63868.5791015625,62.752184343446324,-0.26086924716613763
0.4425675868988037,63867.40301172204,63868.5791015625,58.02652904041243,-0.23985367652227463
0.44471192359924316,63867.50976543773,63868.5791015625,53.518570328288696,-0.21929672812133655
0.44686007499694824,63867.61553081209,63868.5791015625,49.762999229802084,-0.20006714256931524
0.4490036964416504,63867.71989451092,63868.5791015625,46.534099460861455,-0.18185544058495298
0.45114588737487793,63867.82300931817,63868.5791015625,43.97386962260302,-0.1648697219374049
0.4532947540283203,63867.925258087176,63868.5791015625,41.58170873582211,-0.14826116839279171
0.4554276466369629,63868.025567834935,63868.5791015625,38.707196115075476,-0.13112322972975599
0.4575614929199219,63868.1247442184,63868.5791015625,35.79503728055283,-0.11406672766100129
0.45970606803894043,63868.22322899404,63868.5791015625,32.55652609638698,-0.09657451281214202
0.46184825897216797,63868.320410175154,63868.5791015625,29.389568267470885,-0.07935973264615429
0.4640233516693115,63868.41785997974,63868.5791015625,26.572697787229618,-0.06267151430483726
0.46617865562438965,63868.51320382411,63868.5791015625,24.00088845106073,-0.04663863881999857
0.4683363437652588,63868.607434509664,63868.5791015625,21.900621915742512,-0.031499376669685865
0.47046995162963867,63868.699411880385,63868.5791015625,20.13043534101976,-0.01716990681000484
0.4726130962371826,63868.79059473251,63868.5791015625,18.89130473871383,-0.003789441330373969
0.47475695610046387,63868.88059644305,63868.5791015625,17.72391331709968,0.009328598761429031
0.476900577545166,63868.96937395935,63868.5791015625,16.906739321969773,0.021733266691031906
0.479034423828125,63869.05653825899,63868.5791015625,16.334717525378842,0.03354403902090351
0.48117780685424805,63869.142875874524,63868.5791015625,15.934302267765188,0.04497690537459813
0.48332762718200684,63869.22824582165,63868.5791015625,15.654011587435631,0.056096613853914144
0.4854886531829834,63869.312819802246,63868.5791015625,15.457808111204942,0.06698228699031461
0.48763561248779297,63869.39560875634,63868.5791015625,15.320465677843458,0.0775506541456969
0.4897770881652832,63869.47695808101,63868.5791015625,15.22432597449042,0.08787314325454004
0.49190592765808105,63869.556609286105,63868.5791015625,14.857028182143292,0.09841722035913368
